# 10 Jun 2021; convolved with Kurucz, unnormalized
# Wavelength(nm)  Flambda(ergs/cm^s/s/nm)
150.38 0.0001463252
151.13 0.0002070483
151.88 0.0002887558
152.64 0.0005162683
153.39 0.0008954684
154.15 0.001125289
154.90 0.001275005
155.65 0.001547622
156.41 0.001931028
157.16 0.002529578
157.92 0.003225396
158.67 0.003919347
159.42 0.004240183
160.18 0.004536046
160.93 0.005040389
161.69 0.005593745
162.44 0.006243445
163.19 0.007268534
163.95 0.008492135
164.70 0.009133866
165.46 0.009018528
166.21 0.01017083
166.96 0.01229968
167.72 0.01680553
168.47 0.02487644
169.23 0.0348601
169.98 0.04356004
170.73 0.04969761
171.49 0.0555888
172.24 0.06506991
173.00 0.07775094
173.75 0.09999147
174.50 0.1271174
175.26 0.1488264
176.01 0.158524
176.77 0.1646486
177.52 0.1816217
178.27 0.2132973
179.03 0.2489591
179.78 0.272448
180.54 0.2770506
181.29 0.280865
182.04 0.296932
182.80 0.3188534
183.55 0.3179849
184.31 0.3165176
185.06 0.3522417
185.81 0.4208566
186.57 0.4985669
187.32 0.5488127
188.08 0.6038599
188.83 0.6672725
189.58 0.7196507
190.34 0.74937
191.09 0.7798875
191.85 0.7685159
192.60 0.7400323
193.35 0.7514847
194.11 0.8643205
194.86 1.051835
195.62 1.221326
196.37 1.360696
197.12 1.460015
197.88 1.498322
198.63 1.551456
199.39 1.609324
200.14 1.664975
200.89 1.704723
201.65 1.724208
202.40 1.786159
203.16 1.911863
203.91 2.138418
204.66 2.30875
205.42 2.445904
206.17 2.57826
206.93 2.851884
207.68 3.289007
208.43 4.078914
209.19 5.374213
209.94 7.867506
210.70 10.10673
211.45 11.86389
212.20 12.39528
212.96 13.10011
213.71 14.09095
214.47 15.47322
215.22 15.82004
215.97 15.609
216.73 15.08309
217.48 15.77796
218.24 17.18058
218.99 18.65794
219.74 19.05438
220.50 18.43607
221.25 18.13569
222.01 19.37636
222.76 22.23084
223.51 24.34805
224.27 24.41058
225.02 22.01997
225.78 19.89739
226.53 18.90357
227.28 20.08393
228.04 21.65852
228.79 23.35678
229.55 24.19381
230.30 24.78565
231.05 25.17994
231.81 23.64693
232.56 21.39997
233.32 18.54064
234.07 16.90965
234.82 15.96188
235.58 16.04195
236.33 15.43179
237.09 14.35726
237.84 13.29649
238.59 12.52826
239.35 12.11556
240.10 12.9154
240.86 14.6453
241.61 18.31087
242.36 21.80923
243.12 25.11263
243.87 26.69823
244.63 27.75247
245.38 28.15567
246.13 26.31603
246.89 23.74209
247.64 20.1129
248.40 17.95534
249.15 16.98663
249.90 17.66469
250.66 17.94166
251.41 16.46841
252.17 15.93605
252.92 16.08259
253.67 21.23604
254.43 28.00335
255.18 38.46899
255.94 47.77154
256.69 56.06284
257.44 57.61941
258.20 57.0409
258.95 51.00533
259.71 45.86808
260.46 42.05399
261.21 45.66868
261.97 52.72532
262.72 78.89467
263.48 107.5065
264.23 141.1251
264.98 163.1663
265.74 171.3558
266.49 171.2418
267.25 167.5042
268.00 167.2591
268.75 166.1351
269.51 158.6444
270.26 147.844
271.02 131.3119
271.77 115.35
272.52 99.79268
273.28 89.68942
274.03 81.22327
274.79 86.17621
275.54 92.39354
276.29 102.3568
277.05 105.6738
277.80 93.05884
278.56 79.31049
279.31 64.21786
280.06 69.31334
280.82 87.68537
281.57 114.5005
282.33 144.3365
283.08 142.6078
283.83 136.4306
284.59 122.7046
285.34 113.1882
286.10 138.1057
286.85 165.2461
287.60 200.095
288.36 234.8452
289.11 269.0715
289.87 299.0909
290.62 322.4215
291.37 334.0186
292.13 332.0669
292.88 326.244
293.64 316.9552
294.39 312.3688
295.14 311.124
295.90 310.0101
296.65 308.9671
297.41 311.0087
298.16 314.6168
298.91 321.1928
299.67 329.1282
300.42 336.5583
301.18 343.7998
301.93 354.911
302.68 367.6381
303.44 378.188
304.19 387.8662
304.95 392.9821
305.70 396.0765
306.45 400.8656
307.21 406.5136
307.96 405.9432
308.72 401.7435
309.47 406.349
310.22 417.1647
310.98 428.5656
311.73 440.4882
312.49 444.7219
313.24 440.1395
313.99 435.1503
314.75 429.5482
315.50 426.7802
316.26 430.5189
317.01 434.629
317.76 440.11
318.52 445.3516
319.27 448.3007
320.03 451.2579
320.78 444.5849
321.53 437.7083
322.29 437.9184
323.04 439.3174
323.80 466.7734
324.55 504.6643
325.30 542.0154
326.06 578.9978
326.81 604.0921
327.57 611.6708
328.32 617.3601
329.07 616.7926
329.83 616.0229
330.58 611.8798
331.34 607.7027
332.09 605.0788
332.84 602.6901
333.60 591.1022
334.35 574.5992
335.11 554.6691
335.86 530.381
336.61 511.9078
337.37 515.3145
338.12 518.7302
338.88 531.5712
339.63 544.7014
340.38 549.2249
341.14 550.4968
341.89 554.4315
342.65 561.4293
343.40 571.7322
344.15 595.5363
344.91 619.4523
345.66 642.4802
346.42 665.5185
347.17 682.2805
347.92 695.162
348.68 706.1921
349.43 713.0747
350.19 719.9805
350.94 721.2458
351.69 722.4836
352.45 728.6668
353.20 737.3455
353.96 738.9352
354.71 725.782
355.46 712.5544
356.22 674.2647
356.97 635.0986
357.73 622.5345
358.48 627.1663
359.23 636.9015
359.99 663.4309
360.74 690.0762
361.50 704.8077
362.25 717.3838
363.00 734.3236
363.76 756.7125
364.51 779.375
365.27 807.3978
366.02 835.5388
366.77 847.7706
367.53 849.7803
368.28 850.1462
369.04 842.6776
369.79 835.1642
370.54 816.8726
371.30 794.4174
372.05 770.7217
372.81 743.7524
373.56 716.6537
374.31 727.0589
375.07 747.4194
375.82 775.7284
376.58 822.0052
377.33 868.4739
378.08 875.9803
378.84 874.1661
379.59 859.449
380.35 814.1072
381.10 768.5609
381.85 725.5125
382.61 683.0602
383.36 653.1352
384.12 663.7107
384.87 674.3231
385.62 692.5074
386.38 714.1368
387.13 737.3963
387.89 771.2501
388.64 805.2356
389.39 831.9567
390.15 852.8535
390.90 873.8265
391.66 835.2702
392.41 794.5838
393.16 767.9298
393.92 765.5334
394.67 763.119
395.43 792.2089
396.18 831.6028
396.93 877.4757
397.69 965.9805
398.44 1054.826
399.20 1131.279
399.95 1194.78
400.70 1258.518
401.46 1276.768
402.21 1286.233
402.97 1293.009
403.72 1286.759
404.47 1280.471
405.23 1278.252
405.98 1280.235
406.74 1282.214
407.49 1296.835
408.24 1314.647
409.00 1332.478
409.75 1350.022
410.51 1367.618
411.26 1382.101
412.01 1391.346
412.77 1400.612
413.52 1406.499
414.28 1410.494
415.03 1414.491
415.78 1409.887
416.54 1404.244
417.29 1397.505
418.05 1383.851
418.80 1370.135
419.55 1359.472
420.31 1354.321
421.06 1349.14
421.82 1342.181
422.57 1333.873
423.32 1325.524
424.08 1314.436
424.83 1302.487
425.59 1290.485
426.34 1260.641
427.09 1229.787
427.85 1198.884
428.60 1168.351
429.36 1137.703
430.11 1124.758
430.86 1158.308
431.62 1191.963
432.37 1232.313
433.13 1281.991
433.88 1331.827
434.63 1366.511
435.39 1388.434
436.14 1410.419
436.90 1419.599
437.65 1422.053
438.40 1424.505
439.16 1438.671
439.91 1456.716
440.67 1474.81
441.42 1497.678
442.17 1521.534
442.93 1545.456
443.68 1560.09
444.44 1573.787
445.19 1587.516
445.94 1609.613
446.70 1632.128
447.45 1654.703
448.21 1680.166
448.96 1705.701
449.71 1730.816
450.47 1734.859
451.22 1738.607
451.98 1742.178
452.73 1740.284
453.48 1738.376
454.24 1736.795
454.99 1747.706
455.75 1758.641
456.50 1769.557
457.25 1772.164
458.01 1774.77
458.76 1777.376
459.52 1778.487
460.27 1779.546
461.02 1780.6
461.78 1782.223
462.53 1783.895
463.29 1785.564
464.04 1788.874
464.79 1792.474
465.55 1796.076
466.30 1799.323
467.06 1802.463
467.81 1805.605
468.56 1806.159
469.32 1805.444
470.07 1804.719
470.83 1808.6
471.58 1816.12
472.33 1823.654
473.09 1832.814
473.84 1844.124
474.60 1855.458
475.35 1865.178
476.10 1870.827
476.86 1876.485
477.61 1881.456
478.37 1881.659
479.12 1881.855
479.87 1882.044
480.63 1876.395
481.38 1870.42
482.14 1864.422
482.89 1844.618
483.64 1820.392
484.40 1796.092
485.15 1778.003
485.91 1764.971
486.66 1751.896
487.41 1747.799
488.17 1762.116
488.92 1776.465
489.68 1790.448
490.43 1800.359
491.18 1810.29
491.94 1820.242
492.69 1829.481
493.45 1838.591
494.20 1847.718
494.95 1849.396
495.71 1845.189
496.46 1840.963
497.22 1834.245
497.97 1820.825
498.72 1807.362
499.48 1793.856
500.23 1791.784
500.99 1790.012
501.74 1788.229
502.49 1795.096
503.25 1806.784
504.00 1818.496
504.76 1829.379
505.51 1838.339
506.26 1847.317
507.02 1856.311
507.77 1857.394
508.53 1858.052
509.28 1858.706
510.03 1855.009
510.79 1848.103
511.54 1841.174
512.30 1831.508
513.05 1810.098
513.80 1788.629
514.56 1767.101
515.31 1745.912
516.07 1724.776
516.82 1703.582
517.57 1694.017
518.33 1705.4
519.08 1716.805
519.84 1728.234
520.59 1748.571
521.34 1769.75
522.10 1790.975
522.85 1803.332
523.61 1805.243
524.36 1807.153
525.11 1809.062
525.87 1813.142
526.62 1817.257
527.38 1821.378
528.13 1829.313
528.88 1841.179
529.64 1853.069
530.39 1864.982
531.15 1862.702
531.90 1860.18
532.65 1857.646
533.41 1858.599
534.16 1863.722
534.92 1868.853
535.67 1873.99
536.42 1876.157
537.18 1878.033
537.93 1879.907
538.69 1880.181
539.44 1877.44
540.19 1874.687
540.95 1871.921
541.70 1876.344
542.46 1882.968
543.21 1889.601
543.96 1895.657
544.72 1898.814
545.47 1901.973
546.23 1905.135
546.98 1905.925
547.73 1904.78
548.49 1903.627
549.24 1902.467
550.00 1904.906
550.75 1907.246
551.50 1909.585
552.26 1911.428
553.01 1911.884
553.77 1912.337
554.52 1912.788
555.27 1910.084
556.03 1905.193
556.78 1900.29
557.54 1895.373
558.29 1895.822
559.04 1896.853
559.80 1897.883
560.55 1899.434
561.31 1903.164
562.06 1906.897
562.81 1910.634
563.57 1912.345
564.32 1911.737
565.08 1911.124
565.83 1910.507
566.58 1911.668
567.34 1913.522
568.09 1915.376
568.85 1917.23
569.60 1922.649
570.35 1928.239
571.11 1933.836
571.86 1939.026
572.62 1942.234
573.37 1945.445
574.12 1948.658
574.88 1950.111
575.63 1948.56
576.39 1947.001
577.14 1945.437
577.89 1945.507
578.65 1946.921
579.40 1948.334
580.16 1949.747
580.91 1950.793
581.66 1951.686
582.42 1952.578
583.17 1953.468
583.93 1947.762
584.68 1940.868
585.43 1933.957
586.19 1927.031
586.94 1919.413
587.70 1911.756
588.45 1904.082
589.20 1897.213
589.96 1900.997
590.71 1904.785
591.47 1908.577
592.22 1912.607
592.97 1917.945
593.73 1923.289
594.48 1928.64
595.24 1932.635
595.99 1931.648
596.74 1930.656
597.50 1929.659
598.25 1928.17
599.01 1925.265
599.76 1922.352
600.51 1919.375
601.27 1917.561
602.02 1918.824
602.78 1920.086
603.53 1921.347
604.28 1921.843
605.04 1920.393
605.79 1918.938
606.55 1917.477
607.30 1914.406
608.05 1906.875
608.81 1899.329
609.56 1891.767
610.32 1883.835
611.07 1874.683
611.82 1865.514
612.58 1856.326
613.33 1848.193
614.09 1845.294
614.84 1842.388
615.59 1839.474
616.35 1837.228
617.10 1841.676
617.86 1846.129
618.61 1850.587
619.36 1855.049
620.12 1853.87
620.87 1852.649
621.63 1851.423
622.38 1850.193
623.13 1848.081
623.89 1845.837
624.64 1843.587
625.40 1841.33
626.15 1842.169
626.90 1844.127
627.66 1846.086
628.41 1848.045
629.17 1847.724
629.92 1845.7
630.67 1843.669
631.43 1841.632
632.18 1839.853
632.94 1838.474
633.69 1837.09
634.44 1835.702
635.20 1834.503
635.95 1834.129
636.71 1833.753
637.46 1833.373
638.21 1832.99
638.97 1830.664
639.72 1828.266
640.48 1825.861
641.23 1823.45
641.98 1821.306
642.74 1819.26
643.49 1817.209
644.25 1815.152
645.00 1813.164
645.75 1811.258
646.51 1809.346
647.26 1807.429
648.02 1805.485
648.77 1803.431
649.52 1801.37
650.28 1799.215
651.03 1796.903
651.79 1789.19
652.54 1780.583
653.29 1771.962
654.05 1763.328
654.80 1757.388
655.56 1753.85
656.31 1750.306
657.06 1746.756
657.82 1745.301
658.57 1753.66
659.33 1762.03
660.08 1770.409
660.83 1778.798
661.59 1782.433
662.34 1784.898
663.10 1787.365
663.85 1789.833
664.60 1790.828
665.36 1789.673
666.11 1788.515
666.87 1787.354
667.62 1786.19
668.37 1784.334
669.13 1782.467
669.88 1780.595
670.64 1778.72
671.39 1776.927
672.14 1775.2
672.90 1773.469
673.65 1771.735
674.41 1769.986
675.16 1768.117
675.91 1766.244
676.67 1764.367
677.42 1762.486
678.18 1760.271
678.93 1757.835
679.68 1755.394
680.44 1752.949
681.19 1750.513
681.95 1748.216
682.70 1745.913
683.45 1743.607
684.21 1741.296
684.96 1739.782
685.72 1738.882
686.47 1737.98
687.22 1737.075
687.98 1736.163
688.73 1734.913
689.49 1733.66
690.24 1732.404
690.99 1731.145
691.75 1729.401
692.50 1727.03
693.26 1724.654
694.01 1722.275
694.76 1719.89
695.52 1716.99
696.27 1713.986
697.03 1710.977
697.78 1707.962
698.53 1704.962
699.29 1702.028
700.04 1699.052
700.80 1695.453
701.55 1691.853
702.30 1689.333
703.06 1687.62
703.81 1685.906
704.57 1684.19
705.32 1682.473
706.07 1680.141
706.83 1677.742
707.58 1675.341
708.34 1672.939
709.09 1670.172
709.84 1666.063
710.60 1661.951
711.35 1657.837
712.11 1653.721
712.86 1649.273
713.61 1644.49
714.37 1639.704
715.12 1634.916
715.88 1630.125
716.63 1626.646
717.38 1623.581
718.14 1620.514
718.89 1617.446
719.65 1614.376
720.40 1614.105
721.15 1613.837
721.91 1613.569
722.66 1613.301
723.42 1612.731
724.17 1611.043
724.92 1609.355
725.68 1607.665
726.43 1605.974
727.19 1603.852
727.94 1601.09
728.69 1598.327
729.45 1595.561
730.20 1592.794
730.96 1590.759
731.71 1589.282
732.46 1587.804
733.22 1586.324
733.97 1584.844
734.73 1581.707
735.48 1577.891
736.23 1574.073
736.99 1570.252
737.74 1566.43
738.50 1562.622
739.25 1558.815
740.00 1555.007
740.76 1551.196
741.51 1547.383
742.27 1546.702
743.02 1546.297
743.77 1545.891
744.53 1545.484
745.28 1545.077
746.04 1544.413
746.79 1543.744
747.54 1543.076
748.30 1542.406
749.05 1541.712
749.81 1540.256
750.56 1538.061
751.31 1535.613
752.07 1533.166
752.82 1530.698
753.58 1527.805
754.33 1524.914
755.08 1522.024
755.84 1519.136
756.59 1516.228
757.35 1512.834
758.10 1509.443
758.85 1506.053
759.61 1502.666
760.36 1499.275
761.12 1495.455
761.87 1491.637
762.62 1487.822
763.38 1484.009
764.13 1480.199
764.89 1476.406
765.64 1472.617
766.39 1468.83
767.15 1465.046
767.90 1461.264
768.66 1458.277
769.41 1455.408
770.16 1452.54
770.92 1449.674
771.67 1446.81
772.43 1444.538
773.18 1442.448
773.93 1440.359
774.69 1438.271
775.44 1436.184
776.20 1434.064
776.95 1431.925
777.70 1429.786
778.46 1427.649
779.21 1425.513
779.97 1422.941
780.72 1419.88
781.47 1416.821
782.23 1413.764
782.98 1410.709
783.74 1407.606
784.49 1404.382
785.24 1401.16
786.00 1397.94
786.75 1394.722
787.51 1391.413
788.26 1386.984
789.01 1382.557
789.77 1378.134
790.52 1373.713
791.28 1369.296
792.03 1365.769
792.78 1362.414
793.54 1359.061
794.29 1355.71
795.05 1352.361
795.80 1350.003
796.55 1348.37
797.31 1346.739
798.06 1345.108
798.82 1343.477
799.57 1341.47
800.32 1338.366
801.08 1335.057
801.83 1331.751
802.59 1328.448
803.34 1325.149
804.09 1321.632
804.85 1318.113
805.60 1314.597
806.36 1311.084
807.11 1307.575
807.86 1304.562
808.62 1301.842
809.37 1299.125
810.13 1296.41
810.88 1293.698
811.63 1290.778
812.39 1287.259
813.14 1283.743
813.90 1280.231
814.65 1276.723
815.40 1273.218
816.16 1268.424
816.91 1263.43
817.67 1258.44
818.42 1253.457
819.17 1248.479
819.93 1244.579
820.68 1242.053
821.44 1239.529
822.19 1237.007
822.94 1234.488
823.70 1231.971
824.45 1230.085
825.21 1228.209
825.96 1226.334
826.71 1224.461
827.47 1222.588
828.22 1219.768
828.98 1216.036
829.73 1212.308
830.48 1208.583
831.24 1204.863
831.99 1201.15
832.75 1198.182
833.50 1195.217
834.25 1192.255
835.01 1189.296
835.76 1186.34
836.52 1183.523
837.27 1180.862
838.02 1178.203
838.78 1175.547
839.53 1172.893
840.29 1170.242
841.04 1166.548
841.79 1162.754
842.55 1158.965
843.30 1155.179
844.06 1151.398
844.81 1146.696
845.56 1140.042
846.32 1133.396
847.07 1126.758
847.83 1120.129
848.58 1113.508
849.33 1106.724
850.09 1099.914
850.84 1093.388
851.60 1086.867
852.35 1080.351
853.10 1074.263
853.86 1074.831
854.61 1075.398
855.37 1075.965
856.12 1076.531
856.87 1077.095
857.63 1077.493
858.38 1077.624
859.14 1077.755
859.89 1077.885
860.64 1078.015
861.40 1078.144
862.15 1074.681
862.91 1069.565
863.66 1064.453
864.41 1059.345
865.17 1054.241
865.92 1049.14
866.68 1048.579
867.43 1048.238
868.18 1047.898
868.94 1047.557
869.69 1047.216
870.45 1047.078
871.20 1047.781
871.95 1048.482
872.71 1049.182
873.46 1049.881
874.22 1050.579
874.97 1050.177
875.72 1048.175
876.48 1046.174
877.23 1044.175
877.99 1042.177
878.74 1040.18
879.49 1038.007
880.25 1035.712
881.00 1033.418
881.76 1031.126
882.51 1028.836
883.26 1026.547
884.02 1024.987
884.77 1023.68
885.53 1022.373
886.28 1021.067
887.03 1019.762
887.79 1018.458
888.54 1017.114
889.30 1015.764
890.05 1014.416
890.80 1013.068
891.56 1011.721
892.31 1010.375
893.07 1007.824
893.82 1005.229
894.57 1002.635
895.33 1000.043
896.08 997.4534
896.84 994.8558
897.59 991.9309
898.34 989.0082
899.10 986.0875
899.85 983.1691
900.61 980.6714
901.36 978.3427
902.11 977.0001
902.87 975.6573
903.62 974.3141
904.38 972.9707
905.13 971.627
905.88 970.287
906.64 968.9997
907.39 967.7122
908.15 966.4243
908.90 965.1362
909.65 963.8478
910.41 962.5706
911.16 961.5341
911.92 960.4974
912.67 959.4604
913.42 958.4233
914.18 957.3859
914.93 956.3483
915.69 953.7162
916.44 951.0687
917.19 948.4206
917.95 945.772
918.70 943.1228
919.46 940.4731
920.21 938.0559
920.96 935.6625
921.72 933.2686
922.47 930.8742
923.23 928.4793
923.98 926.0839
924.73 925.5765
925.49 925.5698
926.24 925.563
927.00 925.5562
927.75 925.5494
928.50 925.5425
929.26 925.1936
930.01 924.6558
930.77 924.118
931.52 923.58
932.27 923.0419
933.03 922.5037
933.78 921.2016
934.54 919.0315
935.29 916.861
936.04 914.6901
936.80 912.5187
937.55 910.3469
938.31 908.2273
939.06 906.2571
939.81 904.2866
940.57 902.3157
941.32 900.3443
942.08 898.3726
942.83 896.429
943.58 895.8013
944.34 895.1735
945.09 894.5456
945.85 893.9175
946.60 893.2893
947.35 892.6609
948.11 891.3582
948.86 889.8312
949.62 888.3039
950.37 886.9274
951.12 885.7065
951.88 884.4841
952.63 883.2216
953.39 881.9102
954.14 880.5973
954.89 879.2828
955.65 877.9669
956.40 876.6495
957.16 875.4131
957.91 874.809
958.66 874.2041
959.42 873.5983
960.17 872.9915
960.93 872.384
961.68 871.7755
962.43 871.0284
963.19 870.2346
963.94 869.4398
964.70 868.6439
965.45 867.8469
966.20 867.049
966.96 866.2854
967.71 865.5854
968.47 864.8846
969.22 864.1827
969.97 863.4799
970.73 862.7762
971.48 862.0715
972.24 861.1974
972.99 860.3084
973.74 859.4183
974.50 858.5271
975.25 857.6348
976.01 856.7413
976.76 855.9147
977.51 855.1657
978.27 854.4157
979.02 853.6648
979.78 852.9129
980.53 852.16
981.28 851.4061
982.04 850.521
982.79 849.6307
983.55 848.7392
984.30 847.8467
985.05 846.9531
985.81 846.0584
986.56 845.2066
987.32 844.409
988.07 843.6105
988.82 842.8109
989.58 842.0103
990.33 841.2087
991.09 840.4061
991.84 839.6899
992.59 838.9842
993.35 838.2776
994.10 837.5701
994.86 836.8616
995.61 836.1522
996.36 835.1854
997.12 833.5985
997.87 832.01
998.63 830.4198
999.38 828.8279
1000.13 827.2343
1000.89 825.639
1001.64 824.1096
1002.40 822.6126
1003.15 821.1139
1003.90 819.6137
1004.66 818.1119
1005.41 816.6085
1006.17 815.1127
1006.92 814.7696
1007.67 814.4259
1008.43 814.0816
1009.18 813.7367
1009.94 813.3912
1010.69 813.0451
1011.44 812.491
1012.20 811.5022
1012.95 810.5122
1013.71 809.5211
1014.46 808.5289
1015.21 807.5355
1015.97 806.541
1016.72 805.6878
1017.48 804.9288
1018.23 804.1689
1018.98 803.408
1019.74 802.6462
1020.49 801.8834
1021.25 801.1197
1022.00 800.5889
1022.75 800.1033
1023.51 799.6171
1024.26 799.1301
1025.02 798.6424
1025.77 798.154
1026.52 797.6363
1027.28 796.5103
1028.03 795.3832
1028.79 794.2547
1029.54 793.1251
1030.29 791.9941
1031.05 790.862
1031.80 789.7298
1032.56 788.6008
1033.31 787.4706
1034.06 786.3391
1034.82 785.2065
1035.57 784.0725
1036.33 782.9373
1037.08 781.9019
1037.83 781.0465
1038.59 780.19
1039.34 779.3325
1040.10 778.4741
1040.85 777.6146
1041.60 776.7541
1042.36 775.9378
1043.11 775.1731
1043.87 774.4075
1044.62 773.641
1045.37 772.8736
1046.13 772.1052
1046.88 771.336
1047.64 770.5918
1048.39 769.8704
1049.14 769.148
1049.90 768.4248
1050.65 767.7703
1051.41 767.1256
1052.16 766.4798
1052.91 765.5559
1053.67 764.415
1054.42 763.2724
1055.18 762.1283
1055.93 760.9825
1056.68 759.8351
1057.44 758.6861
1058.19 757.5134
1058.95 756.3216
1059.70 755.1282
1060.45 753.9332
1061.21 752.7365
1061.96 751.5381
1062.72 750.3381
1063.47 749.0692
1064.22 747.739
1064.98 746.4071
1065.73 745.0734
1066.49 743.7379
1067.24 742.4006
1067.99 741.0616
1068.75 739.8918
1069.50 738.9202
1070.26 737.9471
1071.01 736.9727
1071.76 735.9969
1072.52 735.0196
1073.27 734.041
1074.03 733.0946
1074.78 732.2085
1075.53 731.3211
1076.29 730.4324
1077.04 729.5424
1077.80 728.6512
1078.55 727.7586
1079.30 726.8172
1080.06 725.7037
1080.81 724.5887
1081.57 723.4721
1082.32 722.354
1083.07 721.2344
